Time (s),T_min (C),T_max (C),T_ave (C),Thermal_Input_C,Sequence_ID,Case_No.
153.97,100.0,100.51,100.05,100.0,1,1
177.95321548821548,100.0,100.59222816738816,100.0619916077441,100.08417508417509,1,1
201.93643097643096,100.0,100.67445633477634,100.0739832154882,100.16835016835016,1,1
225.9196464646465,100.0,100.7566845021645,100.08597482323232,100.25252525252525,1,1
249.90286195286197,100.0,100.83891266955268,100.09796643097644,100.33670033670032,1,1
273.8860774410774,100.0,100.92114083694084,100.10995803872056,100.42087542087542,1,1
297.8692929292929,100.0,101.003369004329,100.12250668831167,100.50505050505048,1,1
321.85250841750843,100.0,101.08559717171715,100.13792446969696,100.58922558922558,1,1
345.8357239057239,100.0,101.16782533910532,100.15334225108224,100.67340067340066,1,1
369.8189393939394,100.0,101.2500535064935,100.16876003246752,100.75757575757576,1,1
393.8021548821549,100.0,101.33228167388168,100.1841778138528,100.84175084175084,1,1
417.7853703703704,100.0,101.41450984126983,100.1995955952381,100.92592592592592,1,1
441.7685858585859,100.0,101.49703509764308,100.21623886868686,101.010101010101,1,1
465.75180134680136,100.0,101.58017691133556,100.23542544107744,101.0942760942761,1,1
489.7350168350168,100.0,101.66331872502803,100.254612013468,101.17845117845118,1,1
513.7182323232323,100.0,101.74646053872054,100.2737985858586,101.26262626262626,1,1
537.7014478114478,100.0,101.82960235241302,100.29298515824917,101.34680134680134,1,1
561.6846632996633,100.0,101.9127441661055,100.31217173063972,101.43097643097644,1,1
585.6678787878787,100.00012127705628,101.99582129870129,100.33133404761904,101.51515151515152,1,1
609.6510942760943,100.00183436387688,102.07804946608948,100.3501780026455,101.5993265993266,1,1
633.6343097643098,100.00354745069744,102.16027763347763,100.36902195767196,101.68350168350167,1,1
657.6175252525253,100.00526053751804,102.2425058008658,100.38786591269842,101.76767676767676,1,1
681.6007407407408,100.00697362433864,102.32473396825397,100.40670986772489,101.85185185185183,1,1
705.5839562289563,100.0086867111592,102.40696213564212,100.42555382275133,101.93602693602692,1,1
729.5671717171717,100.01037314478116,102.48903038383838,100.44522402693605,102.020202020202,1,1
753.5503872053872,100.01197202581368,102.57057331649833,100.4676083613917,102.1043771043771,1,1
777.5336026936027,100.01357090684624,102.65211624915824,100.48999269584736,102.1885521885522,1,1
801.5168181818183,100.0151697878788,102.73365918181818,100.51237703030304,102.27272727272728,1,1
825.5000336700338,100.01676866891134,102.81520211447813,100.5347613647587,102.35690235690237,1,1
849.4832491582492,100.01836754994387,102.89674504713804,100.55714569921436,102.44107744107744,1,1
873.4664646464647,100.01996643097642,102.97828797979798,100.57953003367004,102.52525252525254,1,1
897.4496801346802,100.02167676070376,103.06048451378024,100.6017978891488,102.60942760942764,1,1
921.4328956228956,100.02338948051296,103.1426950646218,100.6240632466684,102.6936026936027,1,1
945.4161111111111,100.02510220032217,103.22490561546336,100.646328604188,102.7777777777778,1,1
969.3993265993266,100.02681492013136,103.30711616630492,100.66859396170756,102.86195286195286,1,1
993.382542087542,100.02852763994056,103.38932671714646,100.69085931922716,102.94612794612794,1,1
1017.3657575757576,100.03048082251082,103.47178015151516,100.71336575757576,103.03030303030302,1,1
1041.348973063973,100.033906996152,103.5557214057239,100.73734897306396,103.1144781144781,1,1
1065.3321885521889,100.03733316979316,103.63966265993264,100.7613321885522,103.1986531986532,1,1
1089.315404040404,100.04075934343436,103.7236039141414,100.7853154040404,103.28282828282826,1,1
1113.2986195286196,100.04418551707552,103.80754516835016,100.80929861952862,103.36700336700336,1,1
1137.281835016835,100.04761169071668,103.89148642255893,100.83328183501683,103.45117845117844,1,1
1161.2650505050506,100.051453010101,103.97470117171716,100.85823372390573,103.53535353535352,1,1
1185.2482659932662,100.05624965319863,104.0562441043771,100.88541470145904,103.6195286195286,1,1
1209.2314814814815,100.0610462962963,104.13778703703704,100.91259567901234,103.7037037037037,1,1
1233.2146969696971,100.06584293939392,104.21932996969696,100.93977665656566,103.78787878787878,1,1
1257.1979124579125,100.07063958249158,104.3008729023569,100.96695763411896,103.87205387205388,1,1
1281.181127946128,100.07543622558924,104.38241583501684,100.99413861167228,103.95622895622895,1,1
1305.1643434343434,100.08033266955267,104.46399203463204,101.02133067821067,104.04040404040404,1,1
1329.147558922559,100.08718501683502,104.5462202020202,101.04874006734006,104.12457912457911,1,1
1353.1307744107744,100.09403736411736,104.62844836940836,101.07614945646944,104.2087542087542,1,1
1377.11398989899,100.10088971139972,104.71067653679653,101.10355884559884,104.2929292929293,1,1
1401.0972053872051,100.10774205868206,104.7929047041847,101.13096823472824,104.37710437710436,1,1
1425.080420875421,100.1145944059644,104.87513287157287,101.15837762385765,104.46127946127946,1,1
1449.0636363636363,100.12135030303033,104.95755393939392,101.1857387878788,104.54545454545456,1,1
1473.046851851852,100.1277458271605,105.0406957530864,101.2129197654321,104.62962962962963,1,1
1497.0300673400675,100.13414135129068,105.1238375667789,101.24010074298542,104.7138047138047,1,1
1521.0132828282829,100.14053687542088,105.20697938047138,101.26728172053872,104.7979797979798,1,1
1544.9964983164984,100.14693239955106,105.29012119416386,101.29446269809203,104.88215488215488,1,1
1568.9797138047138,100.15332792368126,105.37326300785634,101.32164367564532,104.96632996632997,1,1
1592.9629292929294,100.15972344781144,105.45640482154882,101.34882465319863,105.05050505050504,1,1
1616.9461447811448,100.16983406204906,105.5386724963925,101.37786317580569,105.13468013468014,1,1
1640.9293602693604,100.18011258297258,105.62090066378066,101.40698565175563,105.2188552188552,1,1
1664.9125757575755,100.1903911038961,105.70312883116884,101.43610812770562,105.3030303030303,1,1
1688.895791245791,100.20066962481962,105.785356998557,101.4652306036556,105.38720538720538,1,1
1712.879006734007,100.21094814574316,105.86758516594516,101.49435307960556,105.47138047138048,1,1
1736.8622222222225,100.22122666666668,105.94981333333332,101.52368,105.55555555555556,1,1
1760.845437710438,100.2315051875902,106.0320415007215,101.55451556277056,105.63973063973064,1,1
1784.8286531986532,100.24178370851372,106.11426966810969,101.58535112554112,105.72390572390572,1,1
1808.8118686868688,100.25206222943724,106.19649783549784,101.61618668831169,105.8080808080808,1,1
1832.795084175084,100.26234075036076,106.278726002886,101.64702225108223,105.89225589225587,1,1
1856.7782996633,100.27261927128428,106.36095417027416,101.6778578138528,105.97643097643098,1,1
1880.7615151515151,100.28315537373736,106.44343991919192,101.70901535353536,106.06060606060606,1,1
1904.7447306397307,100.2943475409652,106.5265817328844,101.74099297418633,106.14478114478112,1,1
1928.727946127946,100.30553970819304,106.60972354657687,101.77297059483726,106.22895622895622,1,1
1952.7111616161617,100.31673187542088,106.69286536026937,101.80494821548822,106.31313131313132,1,1
1976.6943771043773,100.3279240426487,106.77600717396184,101.83692583613916,106.3973063973064,1,1
2000.6775925925929,100.33911620987654,106.85914898765432,101.86890345679012,106.48148148148148,1,1
2024.660808080808,100.3503776046176,106.94226562770562,101.9008968109668,106.56565656565655,1,1
2048.6440235690234,100.3640822991823,107.0244937950938,101.93344546055796,106.64983164983164,1,1
2072.627239057239,100.377786993747,107.10672196248196,101.96599411014913,106.73400673400673,1,1
2096.6104545454546,100.39149168831167,107.18895012987014,101.99854275974026,106.8181818181818,1,1
2120.59367003367,100.40519638287638,107.2711782972583,102.0310914093314,106.9023569023569,1,1
2144.5768855218853,100.41890107744108,107.35340646464648,102.06364005892256,106.986531986532,1,1
2168.560101010101,100.43273606060606,107.43580835016836,102.09638414141416,107.07070707070709,1,1
2192.5433164983165,100.447125989899,107.51895016386084,102.12996064309765,107.15488215488216,1,1
2216.526531986532,100.46151591919192,107.60209197755331,102.16353714478116,107.23905723905725,1,1
2240.509747474747,100.47590584848486,107.6852337912458,102.19711364646464,107.32323232323232,1,1
2264.492962962963,100.49029577777776,107.76837560493829,102.23069014814814,107.4074074074074,1,1
2288.4761784511784,100.5046857070707,107.85151741863076,102.26426664983164,107.49158249158248,1,1
2312.459393939394,100.51907563636364,107.93465923232324,102.29784315151517,107.57575757575756,1,1
2336.442609427609,100.53442739177488,108.01694608946607,102.3336639141414,107.65993265993264,1,1
2360.4258249158247,100.54984517316016,108.09917425685424,102.36963873737372,107.74410774410774,1,1
2384.4090404040403,100.56526295454545,108.18140242424242,102.40561356060606,107.82828282828282,1,1
2408.392255892256,100.58068073593074,108.2636305916306,102.4415883838384,107.91245791245792,1,1
2432.375471380471,100.59609851731602,108.34585875901875,102.47756320707072,107.996632996633,1,1
2456.3586868686866,100.61168477633476,108.42808692640692,102.51353803030304,108.0808080808081,1,1
2480.341902356902,100.62881564454064,108.5103150937951,102.54951285353536,108.16498316498318,1,1
2504.325117845118,100.6459465127465,108.59254326118328,102.58548767676768,108.24915824915828,1,1
2528.3083333333334,100.66307738095236,108.67477142857145,102.6214625,108.33333333333334,1,1
2552.2915488215485,100.68020824915824,108.7569995959596,102.65743732323232,108.41750841750844,1,1
2576.274764309764,100.69733911736412,108.83922776334776,102.69341214646464,108.50168350168352,1,1
2600.25797979798,100.71458918518518,108.92169432996631,102.72959556902356,108.5858585858586,1,1
2624.2411952861958,100.7321768765432,109.00483614365882,102.76636983277216,108.67003367003367,1,1
2648.2244107744104,100.74976456790122,109.0879779573513,102.80314409652075,108.75420875420876,1,1
2672.207626262626,100.76735225925924,109.17111977104378,102.83991836026937,108.83838383838383,1,1
2696.1908417508416,100.78493995061729,109.25426158473626,102.87669262401796,108.92255892255892,1,1
2720.174057239057,100.8025276419753,109.33740339842872,102.91346688776656,109.00673400673402,1,1
2744.157272727273,100.8201348051948,109.42053922077922,102.95024714285717,109.0909090909091,1,1
2768.140488215488,100.84069184704184,109.50276738816738,102.98793505291006,109.17508417508418,1,1
2792.1237037037035,100.86124888888888,109.58499555555557,103.02562296296296,109.25925925925928,1,1
2816.106919191919,100.88180593073592,109.66722372294372,103.06331087301588,109.34343434343435,1,1
2840.0901346801347,100.90236297258296,109.7494518903319,103.1009987830688,109.42760942760944,1,1
2864.07335016835,100.92292001443,109.83168005772006,103.1386866931217,109.51178451178453,1,1
2888.056565656565,100.94351569023569,109.91406276094276,103.17649050505052,109.5959595959596,1,1
2912.039781144781,100.9643011436588,109.99720457463523,103.21486364983166,109.68013468013469,1,1
2936.0229966329966,100.98508659708192,110.08034638832773,103.2532367946128,109.76430976430976,1,1
2960.006212121212,101.00587205050503,110.1634882020202,103.29160993939394,109.84848484848484,1,1
2983.989427609428,101.02665750392816,110.24663001571268,103.32998308417508,109.93265993265992,1,1
3007.972643097643,101.04744295735128,110.32977182940516,103.36835622895624,110.01683501683502,1,1
3031.9558585858586,101.0682284107744,110.41291364309764,103.40672937373738,110.1010101010101,1,1
3055.939074074074,101.0903719973545,110.49521968253968,103.44604276455026,110.1851851851852,1,1
3079.9222895622893,101.11264212602212,110.57744784992784,103.48544376142377,110.26936026936026,1,1
3103.905505050505,101.13491225468977,110.65967601731602,103.52484475829726,110.35353535353536,1,1
3127.8887205387205,101.15718238335738,110.74190418470418,103.56424575517076,110.43771043771044,1,1
3151.871936026936,101.179452512025,110.82413235209236,103.60364675204426,110.52188552188552,1,1
3175.855151515151,101.20185515151516,110.90649303030304,103.64318025974026,110.6060606060606,1,1
3199.838367003367,101.22583836700338,110.9904342845118,103.68429434343436,110.6902356902357,1,1
3223.8215824915824,101.2498215824916,111.07437553872056,103.72540842712844,110.77441077441078,1,1
3247.804797979798,101.2738047979798,111.1583167929293,103.76652251082253,110.85858585858584,1,1
3271.7880134680136,101.29778801346802,111.24225804713804,103.8076365945166,110.94276094276094,1,1
3295.7712289562287,101.32177122895624,111.3261993013468,103.84875067821068,111.02693602693604,1,1
3319.7544444444443,101.34575444444444,111.4095651111111,103.88959074074072,111.11111111111111,1,1
3343.73765993266,101.36973765993268,111.49110804377104,103.92956276655444,111.1952861952862,1,1
3367.7208754208755,101.39372087542088,111.57265097643098,103.96953479236812,111.27946127946127,1,1
3391.7040909090906,101.41770409090908,111.6541939090909,104.00950681818182,111.36363636363636,1,1
3415.687306397306,101.4416873063973,111.73573684175084,104.0494788439955,111.44781144781145,1,1
3439.670521885522,101.46567052188551,111.81727977441078,104.0894508698092,111.53198653198652,1,1
3463.6537373737374,101.48965373737371,111.8988227070707,104.1294228956229,111.6161616161616,1,1
3487.636952861953,101.5153253066378,111.98272933501684,104.17220884439634,111.70033670033668,1,1
3511.620168350168,101.5410216089466,112.0666705892256,104.215036014911,111.78451178451178,1,1
3535.603383838384,101.5667179112554,112.15061184343436,104.25786318542568,111.86868686868686,1,1
3559.5865993265998,101.5924142135642,112.2345530976431,104.30069035594036,111.95286195286194,1,1
3583.569814814815,101.618110515873,112.31849435185184,104.34351752645502,112.03703703703702,1,1
3607.55303030303,101.64402676767676,112.40231717171716,104.38639545454544,112.12121212121212,1,1
3631.5362457912456,101.67120774523008,112.48545898540964,104.42956524242425,112.2053872053872,1,1
3655.519461279461,101.6983887227834,112.56860079910211,104.47273503030304,112.28956228956228,1,1
3679.502676767677,101.7255697003367,112.6517426127946,104.51590481818182,112.37373737373736,1,1
3703.485892255892,101.75275067789,112.73488442648708,104.5590746060606,112.45791245791246,1,1
3727.469107744108,101.77993165544332,112.81802624017956,104.6022443939394,112.54208754208754,1,1
3751.452323232323,101.80711263299663,112.90116805387206,104.64541418181818,112.62626262626264,1,1
3775.4355387205383,101.83449775853776,112.98349327561328,104.68827774771523,112.71043771043772,1,1
3799.4187542087534,101.86190714766715,113.06572144300144,104.73110491822992,112.7946127946128,1,1
3823.4019696969694,101.88931653679654,113.1479496103896,104.7739320887446,112.87878787878788,1,1
3847.385185185185,101.91672592592592,113.23017777777778,104.81675925925929,112.96296296296298,1,1
3871.3684006734006,101.94413531505532,113.31240594516596,104.85958642977394,113.04713804713803,1,1
3895.351616161616,101.97164124819624,113.39463411255412,104.90251014430017,113.13131313131314,1,1
3919.334831649832,102.00076372414622,113.47686227994228,104.9470504016354,113.21548821548822,1,1
3943.318047138047,102.0298862000962,113.55909044733043,104.99159065897068,113.29966329966332,1,1
3967.301262626263,102.05900867604618,113.6413186147186,105.03613091630592,113.38383838383838,1,1
3991.284478114478,102.08813115199617,113.72354678210678,105.08067117364118,113.46801346801348,1,1
4015.2676936026937,102.11725362794613,113.80577494949496,105.12521143097644,113.55218855218855,1,1
4039.250909090909,102.14665115151516,113.88820315151516,105.17015175757577,113.63636363636364,1,1
4063.234124579125,102.17702989113356,113.97134496520763,105.21651930751965,113.72053872053873,1,1
4087.21734006734,102.20740863075196,114.05448677890011,105.26288685746351,113.8047138047138,1,1
4111.200555555556,102.23778737037036,114.1376285925926,105.3092544074074,113.88888888888889,1,1
4135.183771043771,102.26816610998875,114.22077040628508,105.35562195735127,113.97306397306396,1,1
4159.166986531986,102.29854484960718,114.30391221997756,105.40198950729516,114.05723905723904,1,1
4183.150202020202,102.32892358922558,114.38705403367004,105.44835705723906,114.14141414141412,1,1
4207.133417508418,102.36139535233283,114.46931457431458,105.49461444805196,114.22558922558922,1,1
4231.116632996633,102.393944001924,114.55154274170276,105.5408677922078,114.3097643097643,1,1
4255.099848484849,102.42649265151516,114.63377090909091,105.58712113636363,114.3939393939394,1,1
4279.083063973065,102.4590413011063,114.71599907647908,105.63337448051948,114.47811447811448,1,1
4303.06627946128,102.49158995069745,114.79822724386725,105.67962782467532,114.56228956228956,1,1
4327.049494949495,102.524065993266,114.88057158249158,105.72589569023567,114.64646464646464,1,1
4351.032710437711,102.55604361391694,114.96371339618408,105.77226324017956,114.73063973063974,1,1
4375.015925925926,102.5880212345679,115.04685520987655,105.81863079012346,114.8148148148148,1,1
4398.999141414141,102.61999885521884,115.12999702356905,105.86499834006734,114.8989898989899,1,1
4422.982356902357,102.6519764758698,115.21313883726152,105.91136589001124,114.98316498316498,1,1
4446.965572390573,102.68395409652076,115.296280650954,105.9577334399551,115.06734006734008,1,1
4470.948787878789,102.71593171717171,115.37942246464648,106.004100989899,115.15151515151516,1,1
4494.932003367004,102.74840771885522,115.46176686868688,106.051864006734,115.23569023569024,1,1
4518.915218855219,102.78095636844635,115.54399503607505,106.09983043771044,115.31986531986531,1,1
4542.898434343435,102.81350501803752,115.6262232034632,106.14779686868688,115.4040404040404,1,1
4566.88164983165,102.84605366762868,115.70845137085138,106.19576329966333,115.48821548821547,1,1
4590.864865319866,102.87860231721982,115.79067953823954,106.24372973063974,115.57239057239056,1,1
4614.848080808081,102.91127212121212,115.87296828282828,106.29169616161616,115.65656565656565,1,1
4638.831296296296,102.94724694444444,115.95690953703703,106.3396625925926,115.74074074074072,1,1
4662.814511784512,102.98322176767677,116.0408507912458,106.38762902356903,115.82491582491582,1,1
4686.797727272728,103.01919659090908,116.12479204545456,106.43559545454544,115.9090909090909,1,1
4710.780942760943,103.0551714141414,116.2087332996633,106.48356188552188,115.993265993266,1,1
4734.764158249159,103.09114623737374,116.29267455387206,106.53152831649832,116.0774410774411,1,1
4758.747373737374,103.12696281481482,116.37645756228956,106.57949474747474,116.16161616161618,1,1
4782.73058922559,103.16213819753088,116.45959937598204,106.62746117845116,116.24579124579124,1,1
4806.713804713805,103.19731358024691,116.54274118967452,106.6754276094276,116.32996632996633,1,1
4830.69702020202,103.23248896296296,116.625883003367,106.72339404040405,116.4141414141414,1,1
4854.680235690236,103.26766434567902,116.70902481705949,106.77136047138048,116.49831649831648,1,1
4878.663451178451,103.30283972839509,116.79216663075196,106.8193269023569,116.58249158249156,1,1
4902.646666666667,103.33801511111112,116.87530844444444,106.86729333333334,116.66666666666664,1,1
4926.629882154883,103.37394482323232,116.95758816738817,106.91687618446367,116.75084175084174,1,1
4950.613097643098,103.40991964646464,117.03981633477632,106.9665557022607,116.83501683501684,1,1
4974.596313131314,103.44589446969697,117.1220445021645,107.01623522005772,116.91919191919192,1,1
4998.579528619529,103.48186929292928,117.20427266955268,107.06591473785474,117.003367003367,1,1
5022.562744107745,103.5178441161616,117.28650083694085,107.11559425565176,117.0875420875421,1,1
5046.54595959596,103.5539038047138,117.368825993266,107.16543138047138,117.1717171717172,1,1
5070.529175084175,103.5906780684624,117.45196780695848,107.2165955735129,117.25589225589226,1,1
5094.512390572391,103.627452332211,117.53510962065096,107.26775976655443,117.34006734006736,1,1
5118.495606060606,103.6642265959596,117.61825143434343,107.31892395959596,117.42424242424244,1,1
