Time (s),T_min (C),T_max (C),T_ave (C),Thermal_Input_C,Sequence_ID,Case_No.
153.71,100.0,104.1,100.38,100.0,2,1
177.6936531986532,100.0,104.75612422679173,100.4759346127946,100.16835016835016,2,1
201.6773063973064,100.0,105.41224845358346,100.57186922558924,100.33670033670032,2,1
225.6609595959596,100.0,106.06837268037518,100.66780383838385,100.50505050505048,2,1
249.6446127946128,100.0,106.72449690716692,100.76373845117844,100.67340067340066,2,1
273.62826599326604,100.0,107.38062113395864,100.85967306397306,100.84175084175082,2,1
297.61191919191924,100.0,108.01890801587302,100.95811605339104,101.010101010101,2,1
321.59557239057244,100.0,108.5653926851852,101.06946872895622,101.17845117845116,2,1
345.57922558922564,100.0,109.11187735449737,101.1808214045214,101.34680134680134,2,1
369.5628787878789,100.0,109.65836202380952,101.29217408008658,101.51515151515152,2,1
393.5465319865321,100.0,110.2048466931217,101.40352675565175,101.68350168350167,2,1
417.5301851851853,100.0,110.75133136243387,101.51487943121694,101.85185185185186,2,1
441.5138383838385,100.00052025589224,111.26307037037036,101.62589765656566,102.02020202020203,2,1
465.4974915824917,100.0021191661055,111.70277067901236,101.73622246127948,102.1885521885522,2,1
489.4811447811449,100.00371807631876,112.14247098765432,101.84654726599328,102.35690235690237,2,1
513.464797979798,100.005316986532,112.58217129629632,101.95687207070708,102.52525252525253,2,1
537.4484511784513,100.00691589674524,113.02187160493828,102.06719687542088,102.6936026936027,2,1
561.4321043771045,100.00851480695847,113.46157191358026,102.17752168013467,102.86195286195286,2,1
585.4157575757577,100.01024367965368,113.90131283549783,102.28828510822512,103.03030303030302,2,1
609.3994107744109,100.01366991582492,114.34158418350168,102.40477713804714,103.1986531986532,2,1
633.383063973064,100.01709615199616,114.78185553150551,102.52126916786916,103.36700336700336,2,1
657.3667171717173,100.0205223881674,115.22212687950936,102.6377611976912,103.53535353535354,2,1
681.3503703703705,100.02394862433864,115.66239822751322,102.75425322751322,103.7037037037037,2,1
705.3340235690237,100.02737486050988,116.10266957551708,102.87074525733526,103.87205387205388,2,1
729.3176767676769,100.03224307070708,116.5428074074074,102.98841222895622,104.04040404040404,2,1
753.3013299663301,100.04183653198652,116.98250771604938,103.10992940516272,104.2087542087542,2,1
777.2849831649833,100.051429993266,117.42220802469136,103.23144658136924,104.37710437710436,2,1
801.2686363636365,100.06102345454546,117.86190833333332,103.35296375757576,104.54545454545456,2,1
825.2522895622897,100.07061691582491,118.3016086419753,103.47448093378226,104.71380471380472,2,1
849.2359427609429,100.08021037710438,118.74130895061728,103.59599810998876,104.8821548821549,2,1
873.2195959595961,100.08980383838384,119.18100925925926,103.71751528619528,105.05050505050504,2,1
897.2032491582493,100.10342567278134,119.55417137419388,103.84083105503208,105.21885521885524,2,1
921.1869023569024,100.11713159646084,119.92594455400013,103.96418436814751,105.38720538720538,2,1
945.1705555555556,100.13083752014032,120.29771773380638,104.08753768126294,105.55555555555556,2,1
969.1542087542088,100.14454344381984,120.66949091361263,104.2108909943784,105.72390572390572,2,1
993.137861952862,100.15824936749932,121.04126409341887,104.33424430749382,105.89225589225587,2,1
1017.1215151515152,100.17268833333334,121.41034515151516,104.45759636363636,106.06060606060603,2,1
1041.1051683501685,100.19153263227513,121.76324747715248,104.58094086580088,106.22895622895622,2,1
1065.0888215488217,100.21037693121691,122.1161498027898,104.70428536796535,106.3973063973064,2,1
1089.0724747474749,100.22922123015871,122.46905212842714,104.82762987012988,106.56565656565655,2,1
1113.056127946128,100.24806552910051,122.82195445406444,104.95097437229435,106.73400673400674,2,1
1137.0397811447813,100.26690982804232,123.17485677970178,105.07431887445888,106.90235690235691,2,1
1161.0234343434345,100.28829989225588,123.52741037037038,105.19857008754208,107.07070707070709,2,1
1185.0070875420877,100.31548136588104,123.87917061728396,105.32488399438832,107.23905723905725,2,1
1208.9907407407409,100.34266283950618,124.23093086419752,105.45119790123456,107.40740740740742,2,1
1232.974393939394,100.36984431313132,124.58269111111112,105.5775118080808,107.5757575757576,2,1
1256.9580471380473,100.39702578675646,124.9344513580247,105.70382571492704,107.74410774410777,2,1
1280.9417003367005,100.4242072603816,125.28621160493827,105.83013962177328,107.91245791245792,2,1
1304.9253535353537,100.451662979798,125.63794267676768,105.9565643939394,108.08080808080808,2,1
1328.9090067340069,100.48421222342472,125.9891318843194,106.08504825036076,108.24915824915826,2,1
1352.89265993266,100.51676146705148,126.3403210918711,106.21353210678213,108.41750841750842,2,1
1376.8763131313133,100.5493107106782,126.6915102994228,106.34201596320348,108.58585858585856,2,1
1400.8599663299665,100.58185995430496,127.04269950697451,106.47049981962482,108.75420875420876,2,1
1424.8436195286197,100.61440919793168,127.3938887145262,106.59898367604616,108.9225589225589,2,1
1448.8272727272729,100.64854545454546,127.73050181818182,106.72700363636363,109.09090909090908,2,1
1472.810925925926,100.68851820987656,128.01350892592592,106.85331754320988,109.25925925925924,2,1
1496.7945791245793,100.72849096520764,128.29651603367003,106.97963145005612,109.42760942760944,2,1
1520.7782323232325,100.76846372053872,128.57952314141414,107.10594535690235,109.5959595959596,2,1
1544.7618855218857,100.8084364758698,128.86253024915823,107.2322592637486,109.76430976430976,2,1
1568.745538720539,100.8484092312009,129.14553735690237,107.35857317059484,109.93265993265994,2,1
1592.729191919192,100.88838198653198,129.42854446464645,107.48488707744109,110.10101010101012,2,1
1616.7128451178453,100.9343819155844,129.70957904280905,107.60999554954304,110.26936026936028,2,1
1640.6964983164985,100.9806361038961,129.99053040885042,107.73505316979316,110.43771043771044,2,1
1664.6801515151517,101.0268902922078,130.27148177489178,107.8601107900433,110.6060606060606,2,1
1688.663804713805,101.07314448051947,130.55243314093315,107.9851684102934,110.77441077441078,2,1
1712.647457912458,101.11939866883117,130.8333845069745,108.11022603054352,110.94276094276094,2,1
1736.6311111111113,101.16628095238094,131.11454523809525,108.23549301587302,111.11111111111111,2,1
1760.6147643097645,101.21767449494948,131.39720972222224,108.36226375420875,111.27946127946127,2,1
1784.5984175084177,101.26906803751804,131.6798742063492,108.48903449254448,111.44781144781145,2,1
1808.582070707071,101.32046158008656,131.96253869047618,108.61580523088024,111.61616161616162,2,1
1832.565723905724,101.37185512265512,132.24520317460318,108.74257596921596,111.7845117845118,2,1
1856.5493771043773,101.42324866522364,132.52786765873014,108.8693467075517,111.95286195286197,2,1
1880.5330303030305,101.47639927272726,132.8101742222222,108.99689836363636,112.12121212121212,2,1
1904.516683501684,101.53396004040404,133.09158241975308,109.12641009090908,112.2895622895623,2,1
1928.500336700337,101.5915208080808,133.37299061728396,109.25592181818182,112.45791245791246,2,1
1952.48398989899,101.64908157575756,133.6543988148148,109.38543354545456,112.62626262626264,2,1
1976.4676430976435,101.70664234343434,133.9358070123457,109.51494527272727,112.7946127946128,2,1
2000.4512962962965,101.7642031111111,134.21721520987654,109.644457,112.96296296296296,2,1
2024.4349494949497,101.82194236652236,134.49860940836942,109.77404222222222,113.13131313131312,2,1
2048.4186026936027,101.88532773569024,134.77956077441078,109.9059523148148,113.2996632996633,2,1
2072.402255892256,101.9487131048581,135.06051214045215,110.0378624074074,113.46801346801348,2,1
2096.385909090909,102.01209847402598,135.3414635064935,110.1697725,113.63636363636364,2,1
2120.3695622895625,102.07548384319384,135.62241487253488,110.3016825925926,113.8047138047138,2,1
2144.3532154882155,102.13886921236173,135.90336623857624,110.4335926851852,113.97306397306396,2,1
2168.336868686869,102.20329235690237,136.18440592592592,110.56565734006736,114.14141414141416,2,1
2192.320521885522,102.27204549607184,136.4658141234568,110.69836688776655,114.3097643097643,2,1
2216.3041750841758,102.3407986352413,136.74722232098765,110.83107643546576,114.47811447811448,2,1
2240.2878282828287,102.40955177441076,137.02863051851853,110.963785983165,114.64646464646464,2,1
2264.2714814814817,102.47830491358025,137.31003871604938,111.0964955308642,114.8148148148148,2,1
2288.2551346801347,102.54705805274972,137.59144691358023,111.22920507856342,114.98316498316495,2,1
2312.238787878788,102.6158111919192,137.8728551111111,111.36191462626265,115.15151515151511,2,1
2336.222441077441,102.68756732323232,138.1538343097643,111.49709091750844,115.31986531986531,2,1
2360.2060942760945,102.7595182828283,138.43478567580567,111.63242724627226,115.48821548821547,2,1
2384.1897474747475,102.83146924242423,138.71573704184704,111.76776357503608,115.65656565656566,2,1
2408.173400673401,102.9034202020202,138.9966884078884,111.90309990379993,115.82491582491583,2,1
2432.1570538720543,102.97537116161617,139.2776397739298,112.03843623256374,115.993265993266,2,1
2456.140707070708,103.04784512987014,139.55859113997116,112.1739468975469,116.16161616161618,2,1
2480.1243602693603,103.12493544372296,139.83954250601252,112.31099634439634,116.32996632996634,2,1
2504.1080134680137,103.20202575757575,140.12049387205388,112.4480457912458,116.49831649831653,2,1
2528.091666666667,103.27911607142858,140.40144523809525,112.58509523809524,116.66666666666669,2,1
2552.07531986532,103.35620638528138,140.6823966041366,112.72214468494468,116.83501683501684,2,1
2576.058973063973,103.4332966991342,140.96334797017795,112.85919413179413,117.003367003367,2,1
2600.0426262626265,103.51156492929292,141.24442014814815,112.99721007407408,117.17171717171718,2,1
2624.02627946128,103.59310935016836,141.525828345679,113.1379141728395,117.34006734006734,2,1
2648.009932659933,103.67465377104377,141.80723654320988,113.27861827160494,117.50841750841752,2,1
2671.993585858586,103.7561981919192,142.08864474074073,113.41932237037037,117.67676767676768,2,1
2695.97723905724,103.8377426127946,142.3700529382716,113.5600264691358,117.84511784511784,2,1
2719.9608922558928,103.91928703367005,142.6514611358025,113.70073056790125,118.013468013468,2,1
2743.9445454545457,104.00087337662336,142.9328472077922,113.84146727272729,118.1818181818182,2,1
2767.9281986531987,104.08652928090429,143.21208545574797,113.9853691919192,118.35016835016836,2,1
2791.911851851852,104.1721851851852,143.49132370370373,114.12927111111112,118.51851851851852,2,1
2815.8955050505056,104.2578410894661,143.77056195165946,114.27317303030304,118.68686868686868,2,1
2839.8791582491585,104.343496993747,144.04980019961522,114.41707494949496,118.85521885521884,2,1
2863.8628114478115,104.4291528980279,144.32903844757095,114.56097686868688,119.02356902356902,2,1
2887.846464646465,104.51548013468012,144.594001010101,114.70349663299665,119.19191919191918,2,1
2911.8301178451184,104.60501910662178,144.79066696632998,114.83940400112236,119.36026936026936,2,1
2935.813771043772,104.69455807856342,144.98733292255892,114.97531136924805,119.52861952861952,2,1
2959.7974242424243,104.78409705050504,145.1839988787879,115.11121873737376,119.69696969696967,2,1
2983.7810774410777,104.87363602244668,145.38066483501683,115.24712610549943,119.86531986531986,2,1
3007.764730639731,104.96317499438834,145.5773307912458,115.38303347362516,120.03367003367003,2,1
3031.748383838384,105.05271396632996,145.77399674747474,115.51894084175083,120.2020202020202,2,1
3055.732037037037,105.14655443121691,145.9678300132275,115.65432363756614,120.37037037037037,2,1
3079.7156902356905,105.24077592592592,146.16141235690236,115.78965996632996,120.53872053872054,2,1
3103.699343434344,105.33499742063492,146.3549947005772,115.9249962950938,120.7070707070707,2,1
3127.682996632997,105.42921891534392,146.54857704425203,116.06033262385762,120.87542087542086,2,1
3151.66664983165,105.52344041005291,146.74215938792688,116.19566895262145,121.04377104377105,2,1
3175.650303030304,105.6178012121212,146.93574173160172,116.33086597402595,121.2121212121212,2,1
3199.633956228957,105.71373582491584,147.12932407527657,116.46448918470418,121.38047138047136,2,1
3223.6176094276098,105.80967043771044,147.32290641895142,116.5981123953824,121.54882154882154,2,1
3247.6012626262627,105.90560505050506,147.51648876262627,116.7317356060606,121.71717171717172,2,1
3271.584915824916,106.00153966329968,147.71007110630111,116.86535881673882,121.88552188552188,2,1
3295.5685690235696,106.09747427609427,147.90365344997596,116.99898202741704,122.05387205387206,2,1
3319.5522222222226,106.19457933333334,148.09720792592594,117.13277244444444,122.22222222222224,2,1
3343.5358754208755,106.29531067676768,148.2906760617284,117.2670809023569,122.3905723905724,2,1
3367.519528619529,106.39604202020202,148.48414419753087,117.40138936026936,122.55892255892256,2,1
3391.5031818181824,106.49677336363636,148.67761233333334,117.53569781818182,122.72727272727272,2,1
3415.486835016836,106.59750470707073,148.8710804691358,117.67000627609428,122.89562289562288,2,1
3439.4704882154883,106.69823605050505,149.06454860493827,117.80431473400674,123.06397306397304,2,1
3463.4541414141418,106.7989673939394,149.25801674074074,117.9386231919192,123.23232323232322,2,1
3487.437794612795,106.9017334054834,149.4515979136604,118.07394898388648,123.4006734006734,2,1
3511.421447811448,107.0045204906205,149.64518025733526,118.20928531265032,123.56902356902356,2,1
3535.405101010101,107.10730757575756,149.8387626010101,118.34462164141416,123.73737373737372,2,1
3559.3887542087546,107.21009466089468,150.03234494468495,118.47995797017798,123.9057239057239,2,1
3583.372407407408,107.31288174603176,150.22592728835977,118.6152942989418,124.07407407407408,2,1
3607.356060606061,107.41608666666669,150.4194922222222,118.75047393939394,124.24242424242424,2,1
3631.339713804714,107.52161474074074,150.61296035802468,118.8847823973064,124.4107744107744,2,1
3655.323367003368,107.62714281481482,150.80642849382716,119.01909085521886,124.57912457912458,2,1
3679.307020202021,107.73267088888888,150.99989662962963,119.15339931313132,124.74747474747475,2,1
3703.2906734006738,107.83819896296296,151.1933647654321,119.28770777104376,124.91582491582491,2,1
3727.274326599327,107.94372703703704,151.38683290123456,119.42201622895622,125.08417508417509,2,1
3751.25797979798,108.04925511111112,151.58030103703703,119.55632468686868,125.25252525252526,2,1
3775.2416329966336,108.15693734848486,151.77387175204424,119.69309504569505,125.42087542087545,2,1
3799.225286195287,108.2648637878788,151.9674540957191,119.83014449254448,125.5892255892256,2,1
3823.20893939394,108.37279022727272,152.16103643939394,119.96719393939394,125.75757575757576,2,1
3847.192592592593,108.48071666666668,152.3546187830688,120.1042433862434,125.92592592592592,2,1
3871.1762457912464,108.5886431060606,152.54820112674363,120.24129283309284,126.0942760942761,2,1
3895.1598989898994,108.69667382395384,152.74178347041843,120.378238001443,126.26262626262626,2,1
3919.143552188552,108.80631338143338,152.9353658140933,120.51357433020684,126.43097643097644,2,1
3943.127205387206,108.91595293891294,153.12894815776815,120.64891065897066,126.5993265993266,2,1
3967.110858585859,109.02559249639248,153.322530501443,120.78424698773448,126.76767676767678,2,1
3991.094511784512,109.13523205387206,153.51611284511785,120.91958331649832,126.93602693602696,2,1
4015.078164983165,109.2448716113516,153.7096951887927,121.05491964526216,127.10437710437712,2,1
4039.0618181818186,109.35537927272728,153.903252,121.19074109090909,127.2727272727273,2,1
4063.045471380472,109.46890189786755,154.09672013580249,121.32824736924805,127.44107744107748,2,1
4087.029124579125,109.58242452300786,154.29018827160496,121.46575364758698,127.60942760942764,2,1
4111.012777777778,109.69594714814816,154.4836564074074,121.60325992592593,127.7777777777778,2,1
4134.996430976431,109.80946977328844,154.67712454320989,121.74076620426489,127.94612794612796,2,1
4158.980084175085,109.92299239842876,154.87059267901236,121.87827248260382,128.11447811447812,2,1
4182.963737373738,110.03651502356904,155.0640608148148,122.01577876094277,128.2828282828283,2,1
4206.947390572391,110.14959484126985,155.25763965247714,122.15450275974024,128.45117845117846,2,1
4230.931043771044,110.26266063492064,155.451221996152,122.29326532467532,128.61952861952864,2,1
4254.914696969698,110.37572642857144,155.64480433982683,122.4320278896104,128.7878787878788,2,1
4278.898350168351,110.48879222222224,155.83838668350168,122.57079045454546,128.95622895622895,2,1
4302.882003367004,110.60185801587302,156.03196902717653,122.70955301948052,129.12457912457913,2,1
4326.865656565657,110.7154061952862,156.22574734006733,122.8483608080808,129.2929292929293,2,1
4350.84930976431,110.83212664085298,156.42081438608304,122.987465996633,129.46127946127947,2,1
4374.832962962963,110.94884708641976,156.61588143209875,123.12657118518518,129.62962962962965,2,1
4398.816616161616,111.06556753198656,156.81094847811448,123.26567637373738,129.7979797979798,2,1
4422.800269360269,111.18228797755332,157.0060155241302,123.40478156228956,129.96632996632997,2,1
4446.783922558923,111.2990084231201,157.2010825701459,123.54388675084176,130.13468013468014,2,1
4470.767575757576,111.41572886868688,157.3961496161616,123.68299193939394,130.3030303030303,2,1
4494.751228956229,111.53375248557,157.589913490861,123.82330005531506,130.47138047138048,2,1
4518.734882154883,111.65195763347764,157.78349583453584,123.96377573833574,130.63973063973066,2,1
4542.718535353536,111.7701627813853,157.9770781782107,124.10425142135642,130.80808080808083,2,1
4566.702188552189,111.88836792929294,158.17066052188554,124.2447271043771,130.97643097643098,2,1
4590.685841750842,112.00657307720058,158.3642428655604,124.3852027873978,131.14478114478115,2,1
4614.669494949495,112.12477822510824,158.55782520923523,124.52567847041848,131.31313131313132,2,1
4638.653148148149,112.24298337301587,158.75140755291008,124.66615415343917,131.4814814814815,2,1
4662.636801346802,112.36118852092352,158.9449898965849,124.80662983645983,131.64983164983164,2,1
4686.620454545455,112.47939366883118,159.13857224025975,124.94710551948052,131.8181818181818,2,1
4710.604107744109,112.59759881673882,159.3321545839346,125.0875812025012,131.986531986532,2,1
4734.587760942762,112.71580396464648,159.52573692760944,125.2280568855219,132.15488215488216,2,1
4758.571414141415,112.83435707070709,159.71962083501683,125.36792944107744,132.32323232323233,2,1
4782.555067340068,112.95427533670032,159.91468788103256,125.5054357194164,132.49158249158248,2,1
4806.538720538721,113.0741936026936,160.10975492704827,125.64294199775532,132.65993265993265,2,1
4830.522373737374,113.19411186868687,160.30482197306398,125.78044827609428,132.82828282828282,2,1
4854.506026936027,113.31403013468014,160.4998890190797,125.91795455443322,132.996632996633,2,1
4878.48968013468,113.4339484006734,160.6949560650954,126.05546083277216,133.16498316498317,2,1
4902.473333333334,113.55386666666668,160.89002311111113,126.19296711111112,133.33333333333334,2,1
4926.456986531987,113.67541043169794,161.0836813912939,126.33166542207792,133.50168350168352,2,1
4950.44063973064,113.79704181577682,161.27726373496876,126.470427987013,133.67003367003366,2,1
4974.424292929293,113.9186731998557,161.47084607864358,126.60919055194806,133.83838383838383,2,1
4998.407946127946,114.0403045839346,161.66442842231842,126.74795311688312,134.006734006734,2,1
5022.3915993266,114.16193596801348,161.85801076599327,126.8867156818182,134.17508417508418,2,1
5046.375252525253,114.28355461279462,162.05158037037037,127.02569481481484,134.34343434343435,2,1
5070.358905723906,114.40507178900113,162.24504850617285,127.16639891358024,134.5117845117845,2,1
5094.34255892256,114.52658896520764,162.43851664197533,127.30710301234568,134.68013468013467,2,1
