Time (s),T_min (C),T_max (C),T_ave (C),Thermal_Input_C,Sequence_ID,Case_No.
153.9,200.0,201.03,200.09,200.0,12,1
177.88333333333333,200.0,201.19274404761904,200.11398333333332,200.16835016835017,12,1
201.86666666666667,200.0,201.3554880952381,200.13796666666667,200.33670033670032,12,1
225.85000000000002,200.0,201.51823214285713,200.16195,200.5050505050505,12,1
249.83333333333334,200.0,201.68097619047617,200.18593333333334,200.67340067340066,12,1
273.81666666666666,200.0,201.84372023809522,200.20991666666666,200.84175084175084,12,1
297.8,200.0,202.00674285714285,200.2347357142857,201.010101010101,12,1
321.7833333333333,200.0,202.1712,200.26385833333333,201.17845117845116,12,1
345.76666666666665,200.0,202.33565714285714,200.29298095238096,201.34680134680133,12,1
369.75,200.0,202.5001142857143,200.32210357142856,201.5151515151515,12,1
393.73333333333335,200.0,202.66457142857143,200.35122619047618,201.68350168350167,12,1
417.7166666666667,200.0,202.82902857142858,200.3803488095238,201.85185185185185,12,1
441.70000000000005,200.0,202.99356,200.41092,202.02020202020202,12,1
465.6833333333334,200.0,203.15824555555557,200.44449666666668,202.1885521885522,12,1
489.66666666666663,200.0,203.3229311111111,200.47807333333336,202.35690235690237,12,1
513.65,200.0,203.48761666666667,200.51165,202.5252525252525,12,1
537.6333333333333,200.0,203.65230222222223,200.54522666666668,202.69360269360268,12,1
561.6166666666667,200.0,203.81698777777777,200.57880333333335,202.86195286195286,12,1
585.6,200.00012142857142,203.98165714285713,200.61255000000003,203.03030303030303,12,1
609.5833333333334,200.00183452380952,204.14611428571428,200.648525,203.1986531986532,12,1
633.5666666666667,200.00354761904762,204.31057142857142,200.6845,203.36700336700338,12,1
657.5500000000001,200.0052607142857,204.47502857142857,200.720475,203.53535353535355,12,1
681.5333333333333,200.0069738095238,204.6394857142857,200.75645,203.70370370370372,12,1
705.5166666666667,200.0086869047619,204.80394285714286,200.792425,203.87205387205387,12,1
729.5,200.01037333333332,204.96882666666667,200.82970666666665,204.04040404040404,12,1
753.4833333333333,200.01197222222223,205.13511111111112,200.87127777777778,204.20875420875421,12,1
777.4666666666667,200.0135711111111,205.30139555555556,200.9128488888889,204.3771043771044,12,1
801.45,200.01517,205.46768,200.95442,204.54545454545456,12,1
825.4333333333333,200.0167688888889,205.63396444444444,200.99599111111112,204.71380471380473,12,1
849.4166666666666,200.0183677777778,205.8002488888889,201.03756222222222,204.88215488215488,12,1
873.4,200.01996666666668,205.96653333333333,201.07913333333335,205.05050505050505,12,1
897.3833333333333,200.02167738095238,206.13102857142857,201.12193452380953,205.21885521885523,12,1
921.3666666666667,200.02339047619049,206.29548571428572,201.16476190476192,205.3872053872054,12,1
945.35,200.0251035714286,206.45994285714286,201.2075892857143,205.55555555555557,12,1
969.3333333333334,200.02681666666666,206.6244,201.25041666666667,205.72390572390572,12,1
993.3166666666667,200.02852976190476,206.78885714285715,201.29324404761905,205.8922558922559,12,1
1017.3000000000001,200.03072857142857,206.9533142857143,201.3363142857143,206.06060606060606,12,1
1041.2833333333333,200.03586785714285,207.11777142857144,201.38085476190477,206.22895622895624,12,1
1065.2666666666667,200.04100714285715,207.28222857142856,201.42539523809523,206.3973063973064,12,1
1089.25,200.04614642857143,207.4466857142857,201.46993571428573,206.56565656565658,12,1
1113.2333333333333,200.0512857142857,207.61114285714285,201.5144761904762,206.73400673400673,12,1
1137.2166666666667,200.056425,207.7756,201.55901666666668,206.9023569023569,12,1
1161.2,200.06194666666667,207.94012666666666,201.60508666666666,207.07070707070707,12,1
1185.1833333333334,200.0683422222222,208.10481222222222,201.65465222222224,207.23905723905725,12,1
1209.1666666666667,200.07473777777778,208.26949777777776,201.70421777777779,207.40740740740742,12,1
1233.15,200.08113333333333,208.43418333333332,201.75378333333333,207.5757575757576,12,1
1257.1333333333334,200.0875288888889,208.5988688888889,201.8033488888889,207.74410774410777,12,1
1281.1166666666668,200.09392444444444,208.76355444444442,201.85291444444445,207.9124579124579,12,1
1305.1000000000001,200.10042857142858,208.92831428571426,201.90248571428572,208.08080808080808,12,1
1329.0833333333335,200.10899404761903,209.0944845238095,201.9521654761905,208.24915824915826,12,1
1353.0666666666668,200.11755952380952,209.26065476190476,202.00184523809523,208.41750841750843,12,1
1377.0500000000002,200.126125,209.42682499999998,202.051525,208.58585858585857,12,1
1401.0333333333335,200.13469047619049,209.59299523809523,202.10120476190477,208.75420875420875,12,1
1425.0166666666669,200.14325595238097,209.75916547619047,202.1508845238095,208.92255892255892,12,1
1449.0000000000002,200.15238,209.92502,202.20122,209.0909090909091,12,1
1472.9833333333336,200.16357222222223,210.08970555555555,202.25398333333334,209.25925925925924,12,1
1496.9666666666667,200.17476444444443,210.2543911111111,202.30674666666667,209.4276094276094,12,1
1520.95,200.18595666666667,210.41907666666665,202.35951,209.59595959595958,12,1
1544.9333333333334,200.1971488888889,210.58376222222222,202.41227333333333,209.76430976430976,12,1
1568.9166666666667,200.2083411111111,210.74844777777776,202.46503666666666,209.93265993265993,12,1
1592.9,200.21953333333335,210.91313333333332,202.51780000000002,210.1010101010101,12,1
1616.8833333333334,200.23149166666667,211.0776,202.57253333333335,210.26936026936025,12,1
1640.8666666666668,200.24348333333333,211.24205714285713,202.6273523809524,210.43771043771042,12,1
1664.8500000000001,200.255475,211.40651428571428,202.68217142857142,210.6060606060606,12,1
1688.8333333333335,200.26746666666665,211.57097142857143,202.73699047619047,210.77441077441077,12,1
1712.8166666666668,200.27945833333334,211.73542857142857,202.79180952380952,210.94276094276094,12,1
1736.8000000000002,200.29186428571427,211.90009285714285,202.84683571428573,211.11111111111111,12,1
1760.7833333333335,200.30728214285713,212.0662630952381,202.90336785714285,211.2794612794613,12,1
1784.7666666666669,200.3227,212.23243333333332,202.9599,211.44781144781146,12,1
1808.7500000000002,200.33811785714286,212.39860357142857,203.01643214285713,211.6161616161616,12,1
1832.7333333333336,200.3535357142857,212.5647738095238,203.07296428571428,211.78451178451178,12,1
1856.716666666667,200.36895357142856,212.73094404761903,203.12949642857143,211.95286195286195,12,1
1880.7000000000003,200.38498666666666,212.89669333333333,203.18677333333332,212.12121212121212,12,1
1904.6833333333334,200.40257444444444,213.0613788888889,203.24593222222222,212.28956228956227,12,1
1928.6666666666667,200.42016222222222,213.22606444444443,203.3050911111111,212.45791245791244,12,1
1952.65,200.43775,213.39075,203.36425,212.62626262626262,12,1
1976.6333333333334,200.45533777777777,213.55543555555556,203.42340888888887,212.7946127946128,12,1
2000.6166666666668,200.47292555555558,213.7201211111111,203.48256777777777,212.96296296296296,12,1
2024.6000000000001,200.49055,213.88485,203.54174999999998,213.1313131313131,12,1
2048.5833333333335,200.50939404761905,214.05102023809525,203.60170833333333,213.29966329966328,12,1
2072.5666666666666,200.5282380952381,214.21719047619047,203.66166666666666,213.46801346801345,12,1
2096.55,200.54708214285714,214.38336071428571,203.721625,213.63636363636363,12,1
2120.5333333333333,200.56592619047618,214.54953095238093,203.78158333333332,213.8047138047138,12,1
2144.516666666667,200.58477023809525,214.71570119047618,203.84154166666664,213.97306397306397,12,1
2168.5,200.60429333333332,214.88158666666666,203.90195999999997,214.14141414141415,12,1
2192.4833333333336,200.6266777777778,215.04627222222223,203.96431666666666,214.30976430976432,12,1
2216.4666666666667,200.64906222222223,215.21095777777776,204.02667333333332,214.4781144781145,12,1
2240.4500000000003,200.67144666666667,215.37564333333333,204.08903,214.64646464646464,12,1
2264.4333333333334,200.6938311111111,215.5403288888889,204.15138666666667,214.8148148148148,12,1
2288.416666666667,200.71621555555555,215.70501444444443,204.21374333333333,214.98316498316498,12,1
2312.4,200.73860000000002,215.8697,204.2761,215.15151515151516,12,1
2336.3833333333337,200.76248333333334,216.03577738095237,204.34102619047619,215.31986531986533,12,1
2360.366666666667,200.78646666666668,216.20194761904762,204.40612380952382,215.4882154882155,12,1
2384.3500000000004,200.81045,216.36811785714286,204.47122142857143,215.65656565656568,12,1
2408.3333333333335,200.83443333333332,216.53428809523808,204.53631904761906,215.82491582491582,12,1
2432.316666666667,200.85841666666667,216.70045833333333,204.60141666666667,215.993265993266,12,1
2456.3,200.88274285714286,216.86645714285714,204.6666857142857,216.16161616161617,12,1
2480.2833333333333,200.91015238095238,217.0309142857143,204.7334964285714,216.32996632996634,12,1
2504.266666666667,200.9375619047619,217.19537142857143,204.80030714285715,216.4983164983165,12,1
2528.25,200.96497142857143,217.35982857142858,204.86711785714286,216.66666666666669,12,1
2552.2333333333336,200.99238095238096,217.52428571428572,204.93392857142857,216.83501683501683,12,1
2576.2166666666667,201.01979047619048,217.68874285714287,205.0007392857143,217.003367003367,12,1
2600.2000000000003,201.04756,217.85326,205.06764,217.17171717171718,12,1
2624.1833333333334,201.07634,218.01794555555557,205.13479333333333,217.34006734006735,12,1
2648.166666666667,201.10512,218.1826311111111,205.2019466666667,217.5084175084175,12,1
2672.15,201.13389999999998,218.34731666666667,205.2691,217.67676767676767,12,1
2696.1333333333337,201.16268,218.51200222222224,205.33625333333333,217.84511784511784,12,1
2720.116666666667,201.19146,218.67668777777777,205.40340666666665,218.013468013468,12,1
2744.1000000000004,201.22027142857144,218.8413857142857,205.4705857142857,218.1818181818182,12,1
2768.0833333333335,201.25282023809524,219.00755595238095,205.54082261904762,218.35016835016836,12,1
2792.066666666667,201.28536904761904,219.1737261904762,205.61105952380953,218.51851851851853,12,1
2816.05,201.31791785714285,219.33989642857142,205.68129642857141,218.68686868686868,12,1
2840.0333333333333,201.35046666666668,219.50606666666667,205.75153333333333,218.85521885521885,12,1
2864.016666666667,201.38301547619048,219.67223690476192,205.82177023809524,219.02356902356902,12,1
2888.0,201.41574,219.83815333333334,205.89202666666665,219.1919191919192,12,1
2911.9833333333336,201.44931666666668,220.0028388888889,205.96237777777776,219.36026936026937,12,1
2935.9666666666667,201.48289333333332,220.16752444444444,206.0327288888889,219.52861952861954,12,1
2959.9500000000003,201.51647,220.33221,206.10308,219.69696969696972,12,1
2983.9333333333334,201.55004666666667,220.49689555555557,206.1734311111111,219.86531986531986,12,1
3007.916666666667,201.58362333333335,220.6615811111111,206.24378222222222,220.03367003367003,12,1
3031.9,201.6172,220.82626666666667,206.31413333333333,220.2020202020202,12,1
3055.8833333333337,201.652975,220.9923130952381,206.38752023809522,220.37037037037038,12,1
3079.866666666667,201.68895,221.15848333333335,206.46118333333334,220.53872053872055,12,1
3103.8500000000004,201.724925,221.32465357142857,206.53484642857143,220.7070707070707,12,1
3127.8333333333335,201.76090000000002,221.49082380952382,206.60850952380952,220.87542087542087,12,1
3151.816666666667,201.796875,221.65699404761907,206.6821726190476,221.04377104377105,12,1
3175.8,201.83298571428574,221.82316428571428,206.75583571428572,221.21212121212122,12,1
3199.7833333333338,201.87067380952382,221.98933452380953,206.8294988095238,221.3804713804714,12,1
3223.766666666667,201.9083619047619,222.15550476190475,206.9031619047619,221.54882154882154,12,1
3247.75,201.94605,222.321675,206.976825,221.7171717171717,12,1
3271.7333333333336,201.9837380952381,222.48784523809525,207.0504880952381,221.88552188552188,12,1
3295.7166666666667,202.0214261904762,222.65401547619047,207.1241511904762,222.05387205387206,12,1
3319.7000000000003,202.0596666666667,222.81982666666667,207.19856000000001,222.22222222222223,12,1
3343.6833333333334,202.0996388888889,222.98451222222224,207.27530666666667,222.3905723905724,12,1
3367.666666666667,202.13961111111112,223.14919777777777,207.35205333333334,222.55892255892257,12,1
3391.65,202.17958333333334,223.31388333333334,207.4288,222.72727272727275,12,1
3415.6333333333337,202.21955555555556,223.4785688888889,207.50554666666667,222.8956228956229,12,1
3439.616666666667,202.25952777777778,223.64325444444444,207.58229333333333,223.06397306397307,12,1
3463.6000000000004,202.29950000000002,223.80794,207.65904,223.23232323232324,12,1
3487.5833333333335,202.34229166666668,223.97409166666668,207.736125,223.4006734006734,12,1
3511.566666666667,202.38511904761907,224.1402619047619,207.81321428571428,223.56902356902359,12,1
3535.55,202.42794642857143,224.30643214285715,207.89030357142857,223.73737373737373,12,1
3559.5333333333338,202.47077380952382,224.4726023809524,207.96739285714287,223.9057239057239,12,1
3583.516666666667,202.5136011904762,224.63877261904761,208.04448214285716,224.07407407407408,12,1
3607.5000000000005,202.55672,224.80472,208.122,224.24242424242425,12,1
3631.4833333333336,202.6014888888889,224.96940555555557,208.20194444444445,224.4107744107744,12,1
3655.4666666666667,202.64625777777778,225.1340911111111,208.28188888888891,224.57912457912457,12,1
3679.4500000000003,202.6910266666667,225.29877666666667,208.36183333333335,224.74747474747474,12,1
3703.4333333333334,202.73579555555557,225.46346222222223,208.4417777777778,224.9158249158249,12,1
3727.416666666667,202.78056444444445,225.62814777777777,208.52172222222222,225.0841750841751,12,1
3751.4,202.82533333333333,225.79283333333333,208.6016666666667,225.25252525252523,12,1
3775.3833333333337,202.87143214285715,225.9588488095238,208.68212261904765,225.4208754208754,12,1
3799.366666666667,202.9176857142857,226.12501904761905,208.76263809523812,225.58922558922558,12,1
3823.3500000000004,202.9639392857143,226.2911892857143,208.8431535714286,225.75757575757575,12,1
3847.3333333333335,203.01019285714287,226.45735952380952,208.92366904761906,225.92592592592592,12,1
3871.316666666667,203.05644642857143,226.62352976190476,209.00418452380953,226.0942760942761,12,1
3895.3,203.1028,226.7896,209.08470000000003,226.26262626262627,12,1
3919.2833333333338,203.15076666666667,226.95405714285715,209.1652154761905,226.43097643097644,12,1
3943.266666666667,203.19873333333334,227.1185142857143,209.24573095238097,226.5993265993266,12,1
3967.2500000000005,203.2467,227.28297142857144,209.32624642857144,226.76767676767676,12,1
3991.2333333333336,203.29466666666667,227.4474285714286,209.4067619047619,226.93602693602693,12,1
4015.2166666666667,203.34263333333334,227.61188571428573,209.4872773809524,227.1043771043771,12,1
4039.2000000000003,203.39130666666665,227.77674666666667,209.5687266666667,227.27272727272725,12,1
4063.1833333333334,203.4424711111111,227.9430311111111,209.6534677777778,227.44107744107743,12,1
4087.166666666667,203.49363555555556,228.10931555555555,209.7382088888889,227.6094276094276,12,1
4111.15,203.54479999999998,228.2756,209.82295000000002,227.77777777777777,12,1
4135.133333333333,203.59596444444443,228.44188444444444,209.90769111111112,227.94612794612794,12,1
4159.116666666667,203.6471288888889,228.60816888888888,209.99243222222225,228.11447811447812,12,1
4183.1,203.6982933333333,228.77445333333333,210.07717333333335,228.28282828282826,12,1
4207.083333333333,203.7513345238095,228.94062738095238,210.16114166666668,228.45117845117844,12,1
4231.066666666667,203.80444047619048,229.10679761904763,210.24508333333333,228.6195286195286,12,1
4255.05,203.85754642857142,229.27296785714287,210.329025,228.78787878787878,12,1
4279.033333333333,203.91065238095237,229.4391380952381,210.41296666666668,228.95622895622895,12,1
4303.016666666666,203.96375833333332,229.60530833333334,210.49690833333332,229.12457912457913,12,1
4327.0,204.01702666666665,229.77128666666667,210.58115999999998,229.2929292929293,12,1
4350.983333333334,204.0713888888889,229.93597222222223,210.6675,229.46127946127947,12,1
4374.966666666666,204.1257511111111,230.10065777777777,210.75384,229.62962962962962,12,1
4398.95,204.18011333333334,230.26534333333333,210.84018,229.7979797979798,12,1
4422.933333333333,204.23447555555555,230.4300288888889,210.92652,229.96632996632997,12,1
4446.916666666666,204.28883777777776,230.59471444444443,211.01286000000002,230.13468013468014,12,1
4470.9,204.3432,230.7594,211.09920000000002,230.3030303030303,12,1
4494.883333333333,204.3994607142857,230.92538452380953,211.1864392857143,230.47138047138046,12,1
4518.866666666667,204.45599285714286,231.09155476190477,211.27380714285715,230.63973063973063,12,1
4542.849999999999,204.512525,231.257725,211.361175,230.8080808080808,12,1
4566.833333333333,204.56905714285713,231.42389523809524,211.44854285714285,230.97643097643098,12,1
4590.816666666667,204.62558928571428,231.5900654761905,211.53591071428573,231.14478114478112,12,1
4614.8,204.6821857142857,231.75617142857143,211.62334285714286,231.3131313131313,12,1
4638.783333333333,204.74043095238096,231.92062857142858,211.7124238095238,231.48148148148147,12,1
4662.766666666666,204.7986761904762,232.08508571428573,211.80150476190477,231.64983164983164,12,1
4686.75,204.85692142857144,232.24954285714287,211.89058571428572,231.8181818181818,12,1
4710.733333333334,204.91516666666666,232.41400000000002,211.97966666666667,231.986531986532,12,1
4734.716666666666,204.97341190476192,232.57845714285716,212.0687476190476,232.15488215488216,12,1
4758.7,205.03184000000002,232.74328,212.15823999999998,232.32323232323233,12,1
4782.683333333333,205.0909988888889,232.90956444444444,212.24937666666665,232.4915824915825,12,1
4806.666666666666,205.1501577777778,233.07584888888888,212.34051333333332,232.65993265993265,12,1
4830.65,205.20931666666667,233.24213333333333,212.43165,232.82828282828282,12,1
4854.633333333333,205.26847555555554,233.40841777777777,212.52278666666666,232.996632996633,12,1
4878.616666666667,205.32763444444444,233.57470222222221,212.61392333333333,233.16498316498317,12,1
4902.599999999999,205.38679333333332,233.74098666666666,212.70506,233.33333333333331,12,1
4926.583333333333,205.44832857142856,233.9071630952381,212.79587261904763,233.5016835016835,12,1
4950.566666666667,205.51,234.07333333333332,212.88666666666668,233.67003367003366,12,1
4974.55,205.57167142857142,234.23950357142857,212.9774607142857,233.83838383838383,12,1
4998.533333333333,205.63334285714285,234.40567380952382,213.06825476190477,234.006734006734,12,1
5022.516666666666,205.69501428571428,234.57184404761904,213.15904880952382,234.17508417508418,12,1
5046.5,205.75693333333334,234.73785333333333,213.25005333333334,234.34343434343435,12,1
5070.483333333334,205.8208888888889,234.9025388888889,213.3427888888889,234.51178451178453,12,1
5094.466666666666,205.88484444444444,235.06722444444443,213.43552444444444,234.6801346801347,12,1
5118.45,205.9488,235.23191,213.52826,234.84848484848484,12,1
5142.433333333333,206.01275555555557,235.39659555555556,213.62099555555557,235.01683501683502,12,1
5166.416666666666,206.0767111111111,235.5612811111111,213.71373111111112,235.1851851851852,12,1
5190.4,206.14066666666668,235.72596666666666,213.80646666666667,235.35353535353536,12,1
5214.383333333333,206.20559761904764,235.89192023809525,213.90047023809524,235.52188552188554,12,1
5238.366666666667,206.27069523809524,236.05809047619047,213.99469047619047,235.6902356902357,12,1
5262.349999999999,206.33579285714285,236.22426071428572,214.0889107142857,235.85858585858585,12,1
5286.333333333333,206.40089047619048,236.39043095238094,214.18313095238096,236.02693602693603,12,1
5310.316666666667,206.4659880952381,236.5566011904762,214.2773511904762,236.1952861952862,12,1
5334.3,206.53114285714287,236.72277142857143,214.3716,236.36363636363637,12,1
