Time (s),T_min (C),T_max (C),T_ave (C),Thermal_Input_C,Sequence_ID,Case_No.
153.97,100.0,102.06,100.2,100.0,4,1
177.95321548821548,100.0,102.38719958273208,100.24967951779702,100.33670033670032,4,1
201.93643097643096,100.0,102.71439916546416,100.29935903559404,100.67340067340068,4,1
225.9196464646465,100.0,103.04159874819624,100.34903855339104,101.010101010101,4,1
249.90286195286197,100.0,103.36879833092831,100.39871807118809,101.34680134680136,4,1
273.8860774410774,100.0,103.6959979136604,100.44839758898507,101.68350168350167,4,1
297.8692929292929,100.0,104.023476017316,100.50030527417027,102.02020202020203,4,1
321.85250841750843,100.0,104.3523886868687,100.56368948653198,102.35690235690237,4,1
345.8357239057239,100.0,104.68130135642136,100.6270736988937,102.6936026936027,4,1
369.8189393939394,100.0,105.01021402597402,100.6904579112554,103.03030303030305,4,1
393.8021548821549,100.0,105.3391266955267,100.75384212361712,103.36700336700338,4,1
417.7853703703704,100.0,105.66803936507937,100.81722633597884,103.70370370370372,4,1
441.7685858585859,100.0005199057239,105.99710057912458,100.88287585185184,104.04040404040404,4,1
465.75180134680136,100.00211878675644,106.3264700718294,100.95322661728396,104.37710437710436,4,1
489.7350168350168,100.003717667789,106.65583956453423,101.02357738271604,104.71380471380472,4,1
513.7182323232323,100.00531654882155,106.98520905723906,101.09392814814817,105.05050505050504,4,1
537.7014478114478,100.0069154298541,107.31457854994387,101.16427891358023,105.3872053872054,4,1
561.6846632996633,100.00851431088664,107.64394804264872,101.23462967901234,105.72390572390572,4,1
585.6678787878787,100.01024255411257,107.9732851948052,101.30570002164502,106.06060606060608,4,1
609.6510942760943,100.01366872775374,108.30219786435786,101.3862151022126,106.3973063973064,4,1
633.6343097643098,100.0170949013949,108.63111053391054,101.46673018278018,106.73400673400674,4,1
657.6175252525253,100.02052107503609,108.9600232034632,101.54724526334776,107.07070707070709,4,1
681.6007407407408,100.02394724867725,109.28893587301587,101.62776034391534,107.40740740740742,4,1
705.5839562289563,100.02737342231842,109.61784854256857,101.70827542448292,107.74410774410777,4,1
729.5671717171717,100.03111943434344,109.94686782491584,101.79014981818182,108.08080808080808,4,1
753.5503872053872,100.03591607744109,110.27623731762066,101.8764893939394,108.41750841750842,4,1
777.5336026936027,100.04071272053872,110.60560681032548,101.96282896969696,108.75420875420876,4,1
801.5168181818183,100.04550936363636,110.93497630303033,102.04916854545456,109.09090909090912,4,1
825.5000336700338,100.050306006734,111.26434579573514,102.13550812121213,109.42760942760944,4,1
849.4832491582492,100.05510264983164,111.59371528843997,102.2218476969697,109.76430976430976,4,1
873.4664646464647,100.0598992929293,111.9230847811448,102.30818727272728,110.10101010101012,4,1
897.4496801346802,100.07006056422252,112.2536148158247,102.40054507800276,110.43771043771044,4,1
921.4328956228956,100.08033688307772,112.58416973900012,102.49303194769952,110.7744107744108,4,1
945.4161111111111,100.09061320193292,112.91472466217556,102.58551881739628,111.11111111111111,4,1
969.3993265993266,100.10088952078812,113.245279585351,102.67800568709302,111.44781144781146,4,1
993.382542087542,100.11116583964332,113.57583450852644,102.77049255678978,111.7845117845118,4,1
1017.3657575757576,100.1221637012987,113.90615896103895,102.86370344155844,112.12121212121214,4,1
1041.348973063973,100.13758148268398,114.23507163059163,102.96134939033188,112.45791245791249,4,1
1065.3321885521889,100.15299926406928,114.5639843001443,103.05899533910534,112.7946127946128,4,1
1089.315404040404,100.16841704545456,114.89289696969696,103.15664128787878,113.13131313131314,4,1
1113.2986195286196,100.18383482683984,115.22180963924964,103.25428723665225,113.46801346801348,4,1
1137.281835016835,100.19925260822512,115.5507223088023,103.35193318542568,113.8047138047138,4,1
1161.2650505050506,100.21581204040405,115.8802576969697,103.45148188552189,114.14141414141416,4,1
1185.2482659932662,100.2349986127946,116.21122607070708,103.55540915263748,114.47811447811448,4,1
1209.2314814814815,100.25418518518518,116.54219444444443,103.65933641975307,114.81481481481482,4,1
1233.2146969696971,100.27337175757576,116.8731628181818,103.76326368686868,115.15151515151516,4,1
1257.1979124579125,100.29255832996633,117.2041311919192,103.86719095398428,115.4882154882155,4,1
1281.181127946128,100.3117449023569,117.53509956565657,103.97111822109989,115.82491582491583,4,1
1305.1643434343434,100.33116434343434,117.86596813852812,104.07523954545454,116.16161616161618,4,1
1329.147558922559,100.35514755892255,118.1948808080808,104.1831640151515,116.49831649831653,4,1
1353.1307744107744,100.37913077441075,118.52379347763348,104.29108848484849,116.83501683501684,4,1
1377.11398989899,100.40311398989898,118.85270614718614,104.39901295454546,117.17171717171718,4,1
1401.0972053872051,100.4270972053872,119.1816188167388,104.50693742424242,117.50841750841752,4,1
1425.080420875421,100.4510804208754,119.51053148629148,104.6148618939394,117.84511784511784,4,1
1449.0636363636363,100.47641393939394,119.83987818181818,104.72396787878787,118.1818181818182,4,1
1473.046851851852,100.50679267901236,120.17084655555556,104.83748843209877,118.51851851851852,4,1
1497.0300673400675,100.53717141863076,120.50181492929292,104.95100898540966,118.85521885521884,4,1
1521.0132828282829,100.56755015824916,120.8327833030303,105.06452953872054,119.1919191919192,4,1
1544.9964983164984,100.59792889786756,121.16375167676767,105.17805009203144,119.52861952861952,4,1
1568.9797138047138,100.62830763748596,121.49472005050504,105.2915706453423,119.86531986531986,4,1
1592.9629292929294,100.65868637710436,121.82568842424244,105.4050911986532,120.2020202020202,4,1
1616.9461447811448,100.6927802068302,122.1563289959115,105.5230917135642,120.53872053872054,4,1
1640.9293602693604,100.72704194324194,122.48695475228476,105.6412947041847,120.87542087542089,4,1
1664.9125757575755,100.76130367965368,122.817580508658,105.7594976948052,121.2121212121212,4,1
1688.895791245791,100.7955654160654,123.14820626503126,105.87770068542568,121.54882154882156,4,1
1712.879006734007,100.82982715247716,123.47883202140451,105.99590367604615,121.88552188552188,4,1
1736.8622222222225,100.86490666666668,123.80925333333332,106.11451555555556,122.22222222222224,4,1
1760.845437710438,100.90602075036075,124.138166002886,106.23614471981722,122.55892255892256,4,1
1784.8286531986532,100.94713483405484,124.46707867243867,106.35777388407888,122.89562289562288,4,1
1808.8118686868688,100.98824891774892,124.79599134199134,106.47940304834054,123.23232323232322,4,1
1832.795084175084,101.029363001443,125.124904011544,106.6010322126022,123.56902356902356,4,1
1856.7782996633,101.07047708513709,125.45381668109668,106.72266137686388,123.90572390572387,4,1
1880.7615151515151,101.11352303030304,125.7833089090909,106.84606141414142,124.24242424242424,4,1
1904.7447306397307,101.16148946127946,126.11427728282828,106.97397189674524,124.57912457912455,4,1
1928.727946127946,101.20945589225587,126.44524565656566,107.10188237934904,124.9158249158249,4,1
1952.7111616161617,101.25742232323232,126.77621403030304,107.22979286195286,125.25252525252525,4,1
1976.6943771043773,101.30538875420876,127.10718240404042,107.35770334455668,125.5892255892256,4,1
2000.6775925925929,101.3533551851852,127.43815077777778,107.48561382716048,125.92592592592592,4,1
2024.660808080808,101.40141601731602,127.76910971139972,107.61358724386724,126.26262626262628,4,1
2048.6440235690234,101.45280862193364,128.09973546777297,107.74378184223184,126.5993265993266,4,1
2072.627239057239,101.50420122655125,128.43036122414622,107.87397644059644,126.93602693602692,4,1
2096.6104545454546,101.55559383116884,128.76098698051948,108.00417103896103,127.27272727272728,4,1
2120.59367003367,101.60698643578644,129.09161273689273,108.13436563732564,127.6094276094276,4,1
2144.5768855218853,101.65837904040404,129.42223849326598,108.26456023569024,127.94612794612794,4,1
2168.560101010101,101.71094424242423,129.75292939393938,108.39584057239058,128.2828282828283,4,1
2192.5433164983165,101.76850395959596,130.08389776767677,108.53174546015713,128.6195286195286,4,1
2216.526531986532,101.82606367676767,130.41486614141414,108.66765034792368,128.95622895622895,4,1
2240.509747474747,101.8836233939394,130.7458345151515,108.80355523569024,129.29292929292927,4,1
2264.492962962963,101.94118311111112,131.0768028888889,108.93946012345678,129.62962962962962,4,1
2288.4761784511784,101.99874282828284,131.40777126262626,109.07536501122334,129.96632996632997,4,1
2312.459393939394,102.05630254545454,131.73873963636362,109.2112698989899,130.30303030303028,4,1
2336.442609427609,102.11931261063012,132.0693874013949,109.34984652597404,130.63973063973063,4,1
2360.4258249158247,102.18269682299184,132.40001315776814,109.48860655844156,130.97643097643098,4,1
2384.4090404040403,102.24608103535354,132.7306389141414,109.62736659090908,131.31313131313132,4,1
2408.392255892256,102.30946524771524,133.06126467051467,109.76612662337662,131.64983164983167,4,1
2432.375471380471,102.37284946007696,133.39189042688793,109.90488665584417,131.986531986532,4,1
2456.3586868686866,102.43673910533911,133.72251618326118,110.04415212121212,132.32323232323233,4,1
2480.341902356902,102.5052625781626,134.05314193963443,110.1880514141414,132.65993265993268,4,1
2504.325117845118,102.57378605098606,134.3837676960077,110.3319507070707,132.996632996633,4,1
2528.3083333333334,102.64230952380952,134.71439345238096,110.47585,133.33333333333334,4,1
2552.2915488215485,102.710832996633,135.0450192087542,110.6197492929293,133.67003367003366,4,1
2576.274764309764,102.77935646945647,135.37564496512746,110.7636485858586,134.006734006734,4,1
2600.25797979798,102.84919113804712,135.70636012121213,110.90838227609429,134.34343434343432,4,1
2624.2411952861958,102.92273966554431,136.0373284949495,111.05547933108868,134.68013468013467,4,1
2648.2244107744104,102.99628819304152,136.36829686868683,111.20257638608304,135.01683501683502,4,1
2672.207626262626,103.06983672053872,136.69926524242425,111.34967344107744,135.35353535353534,4,1
2696.1908417508416,103.14338524803593,137.0302336161616,111.49677049607185,135.69023569023568,4,1
2720.174057239057,103.21693377553312,137.361201989899,111.64386755106622,136.02693602693603,4,1
2744.157272727273,103.29051675324676,137.69216811688312,111.79098857142858,136.36363636363637,4,1
2768.140488215488,103.36931874699376,138.02279387325638,111.9417402116402,136.7003367003367,4,1
2792.1237037037035,103.44812074074076,138.35341962962963,112.09249185185186,137.03703703703704,4,1
2816.106919191919,103.52692273448774,138.68404538600288,112.2432434920635,137.37373737373738,4,1
2840.0901346801347,103.60572472823472,139.01467114237616,112.39399513227514,137.7104377104377,4,1
2864.07335016835,103.68452672198173,139.3452968987494,112.54474677248676,138.04713804713805,4,1
2888.056565656565,103.7643331986532,139.67598060606062,112.69596202020202,138.3838383838384,4,1
2912.039781144781,103.84907389337825,140.00694897979798,112.8494545993266,138.7205387205387,4,1
2936.0229966329966,103.93381458810326,140.33791735353535,113.00294717845118,139.05723905723906,4,1
2960.006212121212,104.01855528282827,140.66888572727274,113.15643975757575,139.39393939393938,4,1
2983.989427609428,104.10329597755332,140.9998541010101,113.30993233670031,139.73063973063972,4,1
3007.972643097643,104.18803667227834,141.33082247474746,113.46342491582492,140.06734006734007,4,1
3031.9558585858586,104.27277736700336,141.66179084848486,113.61691749494948,140.4040404040404,4,1
3055.939074074074,104.361487989418,141.9924458068783,113.77573813492064,140.74074074074073,4,1
3079.9222895622893,104.45056850408852,142.32307156325157,113.9350552092352,141.07744107744108,4,1
3103.905505050505,104.53964901875902,142.65369731962485,114.0943722835498,141.41414141414143,4,1
3127.8887205387205,104.62872953342954,142.98432307599808,114.25368935786436,141.75084175084174,4,1
3151.871936026936,104.71781004810003,143.31494883237133,114.41300643217892,142.0875420875421,4,1
3175.855151515151,104.80715558441558,143.6457070995671,114.5723235064935,142.42424242424244,4,1
3199.838367003367,104.89966227272728,143.97804594276096,114.73164058080808,142.76094276094278,4,1
3223.8215824915824,104.99216896103896,144.3103847859548,114.89095765512263,143.0976430976431,4,1
3247.804797979798,105.08467564935064,144.64272362914863,115.05027472943723,143.43434343434345,4,1
3271.7880134680136,105.17718233766234,144.97506247234247,115.2095918037518,143.77104377104376,4,1
3295.7712289562287,105.26968902597405,145.3074013155363,115.36890887806638,144.10774410774408,4,1
3319.7544444444443,105.3634014074074,145.6390277037037,115.52836296296296,144.44444444444443,4,1
3343.73765993266,105.46093315039282,145.96839719640855,115.68825106621772,144.78114478114475,4,1
3367.7208754208755,105.55846489337824,146.29776668911336,115.8481391694725,145.11784511784512,4,1
3391.7040909090906,105.65599663636364,146.62713618181817,116.00802727272726,145.45454545454544,4,1
3415.687306397306,105.75352837934904,146.95650567452302,116.16791537598203,145.7912457912458,4,1
3439.670521885522,105.85106012233446,147.28587516722783,116.3278034792368,146.12794612794613,4,1
3463.6537373737374,105.94859186531988,147.61524465993267,116.48769158249158,146.46464646464648,4,1
3487.636952861953,106.05130122655125,147.94754063251565,116.65039360870612,146.8013468013468,4,1
3511.620168350168,106.15408643578644,148.27987947570946,116.81313685666186,147.13804713804714,4,1
3535.603383838384,106.25687164502165,148.61221831890333,116.9758801046176,147.4747474747475,4,1
3559.5865993265998,106.35965685425684,148.94455716209717,117.13862335257336,147.8114478114478,4,1
3583.569814814815,106.46244206349206,149.276896005291,117.3013666005291,148.14814814814815,4,1
3607.55303030303,106.5658702020202,149.60903181818182,117.4648712121212,148.48484848484847,4,1
3631.5362457912456,106.6729952312009,149.94000019191918,117.63275372053872,148.82154882154882,4,1
3655.519461279461,106.7801202603816,150.27096856565657,117.80063622895622,149.15824915824916,4,1
3679.502676767677,106.88724528956229,150.60193693939394,117.96851873737371,149.49494949494948,4,1
3703.485892255892,106.99437031874298,150.9329053131313,118.13640124579123,149.83164983164983,4,1
3727.469107744108,107.10149534792367,151.2638736868687,118.30428375420875,150.16835016835014,4,1
3751.452323232323,107.20862037710438,151.59484206060606,118.47216626262626,150.5050505050505,4,1
3775.4355387205383,107.31799103415104,151.92550421236172,118.643110990861,150.84175084175084,4,1
3799.4187542087534,107.4276285906686,152.25612996873497,118.81441967291968,151.17845117845118,4,1
3823.4019696969694,107.53726614718614,152.58675572510822,118.98572835497836,151.5151515151515,4,1
3847.385185185185,107.6469037037037,152.91738148148147,119.15703703703704,151.85185185185185,4,1
3871.3684006734006,107.75654126022124,153.24800723785475,119.32834571909572,152.1885521885522,4,1
3895.351616161616,107.86646844877345,153.578632994228,119.49984748917748,152.52525252525254,4,1
3919.334831649832,107.98124526575276,153.90925875060125,119.67458234487734,152.86195286195286,4,1
3943.318047138047,108.09602208273208,154.2398845069745,119.8493172005772,153.1986531986532,4,1
3967.301262626263,108.2107988997114,154.57051026334776,120.02405205627706,153.53535353535355,4,1
3991.284478114478,108.32557571669072,154.90113601972104,120.19878691197692,153.87205387205387,4,1
4015.2676936026937,108.44035253367004,155.2317617760943,120.37352176767678,154.2087542087542,4,1
4039.250909090909,108.55590448484848,155.56246254545457,120.5492067878788,154.54545454545453,4,1
4063.234124579125,108.674221681257,155.89343091919193,120.72828146352413,154.88215488215488,4,1
4087.21734006734,108.79253887766556,156.2243992929293,120.90735613916948,155.21885521885525,4,1
4111.200555555556,108.91085607407408,156.55536766666668,121.08643081481482,155.55555555555557,4,1
4135.183771043771,109.0291732704826,156.88633604040405,121.26550549046016,155.8922558922559,4,1
4159.166986531986,109.14749046689111,157.2173044141414,121.4445801661055,156.22895622895624,4,1
4183.150202020202,109.26580766329968,157.5482727878788,121.62365484175083,156.56565656565658,4,1
4207.133417508418,109.38897186147186,157.8789106842232,121.80515301827802,156.9023569023569,4,1
4231.116632996633,109.51231411255412,158.20953644059645,121.98674022126022,157.23905723905725,4,1
4255.099848484849,109.63565636363636,158.5401621969697,122.16832742424242,157.5757575757576,4,1
4279.083063973065,109.75899861471862,158.87078795334298,122.34991462722463,157.91245791245794,4,1
4303.06627946128,109.88234086580088,159.20141370971623,122.53150183020684,158.24915824915826,4,1
4327.049494949495,110.00606067340068,159.53228632996635,122.71337946127946,158.5858585858586,4,1
4351.032710437711,110.13237227497194,159.86485358473627,122.89725078002245,158.92255892255892,4,1
4375.015925925926,110.2586838765432,160.19742083950618,123.08112209876543,159.25925925925927,4,1
4398.999141414141,110.38499547811448,160.5299880942761,123.26499341750842,159.59595959595958,4,1
4422.982356902357,110.51130707968576,160.86255534904603,123.4488647362514,159.93265993265993,4,1
4446.965572390573,110.637618681257,161.19512260381595,123.6327360549944,160.26936026936028,4,1
4470.948787878789,110.76393028282828,161.52768985858586,123.81660737373738,160.6060606060606,4,1
4494.932003367004,110.89363087542088,161.8585626178451,124.0029705976431,160.94276094276094,4,1
4518.915218855219,111.02382547378548,162.18918837421836,124.18969706108706,161.27946127946126,4,1
4542.898434343435,111.15402007215008,162.51981413059164,124.37642352453103,161.6161616161616,4,1
4566.88164983165,111.28421467051469,162.8504398869649,124.563149987975,161.95286195286195,4,1
4590.864865319866,111.41440926887928,163.18106564333814,124.74987645141896,162.2895622895623,4,1
4614.848080808081,111.54472502164504,163.5116913997114,124.93672406926407,162.62626262626262,4,1
4638.831296296296,111.6783457936508,163.84231715608465,125.1268767063492,162.96296296296296,4,1
4662.814511784512,111.81196656565658,164.17294291245793,125.31702934343436,163.2996632996633,4,1
4686.797727272728,111.94558733766236,164.50356866883118,125.50718198051948,163.63636363636363,4,1
4710.780942760943,112.0792081096681,164.83419442520443,125.69733461760462,163.97306397306397,4,1
4734.764158249159,112.21282888167389,165.16482018157768,125.88748725468976,164.30976430976432,4,1
4758.747373737374,112.34753476767676,165.49551375757576,126.07829548148148,164.64646464646464,4,1
4782.73058922559,112.48663741750842,165.82648213131316,126.27176008641976,164.98316498316498,4,1
4806.713804713805,112.62574006734006,166.15745050505052,126.46522469135805,165.3198653198653,4,1
4830.69702020202,112.76484271717172,166.48841887878788,126.6586892962963,165.65656565656565,4,1
4854.680235690236,112.90394536700336,166.81938725252527,126.85215390123456,165.993265993266,4,1
4878.663451178451,113.04304801683502,167.15035562626264,127.04561850617284,166.3299663299663,4,1
4902.646666666667,113.18215066666669,167.481324,127.23908311111111,166.66666666666666,4,1
4926.629882154883,113.32416287277536,167.8135855098605,127.43427189754688,167.003367003367,4,1
4950.613097643098,113.46634907888408,168.14592435305434,127.6295637950938,167.34006734006732,4,1
4974.596313131314,113.60853528499278,168.4782631962482,127.8248556926407,167.67676767676767,4,1
4998.579528619529,113.75072149110149,168.81060203944205,128.02014759018758,168.013468013468,4,1
5022.562744107745,113.8929076972102,169.14294088263588,128.21543948773447,168.35016835016836,4,1
5046.54595959596,114.03544548821549,169.47513424242425,128.4110465993266,168.6868686868687,4,1
5070.529175084175,114.18094366217731,169.8061026161616,128.60930784736252,169.02356902356902,4,1
5094.512390572391,114.32644183613915,170.137070989899,128.80756909539843,169.36026936026937,4,1
